0 4.00057 4.00057
0.005 7.39144 5.696
0.01 -9.34016 -1.82208
0.015 -1.73147 -1.77677
0.02 5.68915 1.95619
0.025 9.87088 5.91354
0.03 8.71378 7.31366
0.035 6.1895 6.75158
0.04 16.8633 11.8074
0.045 10.0312 10.9193
0.05 18.9569 14.9381
0.055 22.3455 18.6418
0.06 3.55853 11.1002
0.065 10.1943 10.6472
0.07 12.6891 11.6682
0.075 12 11.8341
0.08 5.74749 8.79079
0.085 0.310847 4.55082
0.09 5.9193 5.23506
0.095 -2.9193 1.15788
0.1 5.90298 3.53043
0.105 7.39144 5.46093
0.11 -7.39144 -0.965251
0.115 0.217017 -0.374117
0.12 4.52013 2.073
0.125 5.85241 3.96271
0.13 1.78298 2.87285
0.135 -1.68915 0.591846
0.14 5.9193 3.25557
0.145 -2.01012 0.622724
0.15 8 4.31136
0.155 11.3914 7.8514
0.16 -5.39364 1.22888
0.165 2.11283 1.67085
0.17 6.57971 4.12528
0.175 8 6.06264
0.18 3.61578 4.83921
0.185 -0.717646 2.06078
0.19 6.9193 4.49004
0.195 -0.919299 1.78537
0.2 10.9651 6.37523
0.205 19.2532 12.8142
0.21 11.6086 12.2114
0.215 32.146 22.1787
0.22 54.6892 38.4339
0.225 76.9142 57.6741
0.23 91.783 74.7285
0.235 99.3108 87.0197
0.24 108.919 97.9695
0.245 92.08 95.0247
0.25 82 88.5124
0.255 61.3914 74.9519
0.26 18.6086 46.7802
0.265 4.08518 25.4327
0.27 -8.29138 8.57067
0.275 -18.8925 -5.16093
0.28 -17.217 -11.189
0.285 -14.6593 -12.9241
0.29 -2.0807 -7.50242
0.295 -5.88946 -6.69594
0.3 4 -1.34797
0.305 9.20974 3.93088
0.31 -6.49768 -1.2834
0.315 0.217017 -0.53319
0.32 4.67718 2.07199
0.325 5.90585 3.98892
0.33 1.78298 2.88595
0.335 -4.59625 -0.855151
0.34 2.9193 1.03207
0.345 -4.8108 -1.88936
0.35 4.11204 1.11134
0.355 7.39144 4.25139
0.36 -9.33645 -2.54253
0.365 -1.78298 -2.16276
0.37 2.81523 0.326238
0.375 4 2.16312
0.38 -0.217017 0.973051
0.385 -4.60607 -1.81651
0.39 2.9193 0.551394
0.395 -2.9193 -1.18395
0.4 6 2.40802
0.405 10.3498 6.37891
0.41 -6.50002 -0.0605531
0.415 2.21702 1.07823
0.42 -0.310847 0.383692
0.425 9 4.69185
0.43 4.72579 4.70882
0.435 1.15497 2.93189
0.44 9.82557 6.37873
0.445 3.0807 4.72971
0.45 12.9595 8.8446
0.455 17.3774 13.111
0.46 1.60856 7.35979
0.465 9.21702 8.2884
0.47 14.6891 11.4888
0.475 15.9752 13.732
0.48 12.6987 13.2154
0.485 8.31085 10.7631
0.49 15.7115 13.2373
0.495 8.9642 11.1007
0.5 19 15.0504
0.505 24.3914 19.7209
0.51 9.48188 14.6014
0.515 19.217 16.9092
0.52 25.6891 21.2992
0.525 28.8826 25.0909
0.53 27.7768 26.4338
0.535 25.3109 25.8723
0.54 34.8709 30.3716
0.545 29.947 30.1593
0.55 42 36.0797
0.555 47.3364 41.708
0.56 33.5737 37.6409
0.565 43.217 40.4289
0.57 50.6847 45.5568
0.575 53.9629 49.7598
0.58 52.6808 51.2203
0.585 50.2298 50.7251
0.59 58.818 54.7715
0.595 52.0212 53.3963
0.6 62 57.6982
0.605 65.3914 61.5448
0.61 49.5546 55.5497
0.615 57.2052 56.3775
0.62 60.6892 58.5333
0.625 62 60.2667
0.63 56.783 58.5248
0.635 52.3108 55.4178
0.64 57.8859 56.6519
0.645 48.0807 52.3663
0.65 54.9391 53.6527
0.655 55.2065 54.4296
0.66 34.5524 44.491
0.665 39.217 41.854
0.67 39.6547 40.7543
0.675 38 39.3772
0.68 29.783 34.5801
0.685 22.2521 28.4161
0.69 26.9193 27.6677
0.695 16.0807 21.8742
0.7 22 21.9371
0.705 22.3015 22.1193
0.71 3.54486 12.8321
0.715 9.21702 11.0245
0.72 11.6891 11.3568
0.725 11.9984 11.6776
0.73 5.78298 8.73029
0.735 -0.700933 4.01468
0.74 5.9193 4.96699
0.745 -2.9193 1.02385
0.75 6 3.51192
0.755 7.39144 5.45168
0.76 -9.39143 -1.96988
0.765 -1.78298 -1.87643
0.77 2.72038 0.421974
0.775 4.00997 2.21597
0.78 -0.163208 1.02638
0.785 -4.65433 -1.81397
0.79 2.9193 0.552662
0.795 -4.85189 -2.14962
0.8 4.26202 1.0562
0.805 7.39144 4.22382
0.81 -9.29721 -2.53669
0.815 -1.78298 -2.15984
0.82 2.68915 0.264657
0.825 4 2.13233
0.83 -0.15848 0.986924
0.835 -4.68483 -1.84895
0.84 3.00767 0.579358
0.845 -4.9193 -2.16997
0.85 4 0.915015
0.855 7.39144 4.15322
0.86 -9.39143 -2.6191
0.865 -1.72074 -2.16992
0.87 2.68915 0.259615
0.875 4 2.12981
0.88 -0.170133 0.979837
0.885 -4.68915 -1.85466
0.89 2.9193 0.53232
0.895 -4.86326 -2.16547
0.9 4.00283 0.918681
0.905 7.40893 4.1638
0.91 -9.27201 -2.5541
0.915 -1.67539 -2.11475
0.92 2.69051 0.287883
0.925 4 2.14394
0.93 -0.217017 0.963462
0.935 -4.65658 -1.84656
0.94 3.15161 0.652525
0.945 -4.81359 -2.08053
0.95 4.0235 0.971482
0.955 7.39144 4.18146
0.96 -9.39143 -2.60499
0.965 -1.78298 -2.19399
0.97 2.68915 0.247584
0.975 4.04274 2.14516
0.98 -0.0916676 1.02675
0.985 -4.67709 -1.82517
0.99 2.9193 0.547063
0.995 -4.78301 -2.11797
1 4 0.941013
1.005 7.39144 4.16622
1.01 -9.29784 -2.56581
1.015 -1.78143 -2.17362
1.02 5.6267 1.72654
1.025 10 5.86327
1.03 8.73591 7.29959
1.035 6.31085 6.80522
1.04 16.8574 11.8313
1.045 10.0223 10.9268
1.05 18.9381 14.9325
1.055 22.3914 18.662
1.06 3.60857 11.1353
1.065 10.217 10.6761
1.07 12.6891 11.6826
1.075 12 11.8413
1.08 5.77115 8.80624
1.085 0.310847 4.55854
1.09 5.90785 5.2332
1.095 -2.9193 1.15695
1.1 6 3.57847
1.105 7.39144 5.48495
1.11 -7.39144 -0.95324
1.115 0.144727 -0.404257
1.12 4.53774 2.06674
1.125 6 4.03337
1.13 1.78298 2.90818
1.135 -1.68915 0.609512
1.14 5.8358 3.22266
1.145 -1.99881 0.611923
1.15 7.95192 4.28192
1.155 11.2919 7.78689
1.16 -5.39144 1.19773
1.165 2.21702 1.70737
1.17 6.62484 4.16611
1.175 8 6.08305
1.18 3.78298 4.93302
1.185 -0.689153 2.12193
1.19 6.9193 4.52062
1.195 -0.919299 1.80066
1.2 10.8503 6.32547
1.205 19.3165 12.821
1.21 11.6086 12.2148
1.215 32.1982 22.2065
1.22 54.6892 38.4478
1.225 77 57.7239
1.23 91.6818 74.7029
1.235 99.3108 87.0069
1.24 108.877 97.9418
1.245 91.9343 94.9381
1.25 82 88.469
1.255 61.308 74.8885
1.26 18.5593 46.7239
1.265 4.0841 25.404
1.27 -8.31085 8.54658
1.275 -18.955 -5.20424
1.28 -17.0589 -11.1316
1.285 -14.6891 -12.9104
1.29 -2.04517 -7.47776
1.295 -5.86596 -6.67186
1.3 4.1054 -1.28323
1.305 9.39143 4.0541
1.31 -6.50102 -1.22346
1.315 0.217017 -0.503222
1.32 4.68915 2.09297
1.325 6 4.04648
1.33 1.78298 2.91473
1.335 -4.5665 -0.825886
1.34 3.15468 1.1644
1.345 -4.9193 -1.87745
1.35 4 1.06127
1.355 7.39144 4.22635
1.36 -9.39143 -2.58254
1.365 -1.78298 -2.18276
1.37 2.83238 0.324807
1.375 4.00693 2.16587
1.38 -0.119959 1.02295
1.385 -4.52466 -1.75085
1.39 2.9193 0.584223
1.395 -2.95926 -1.18752
1.4 5.86929 2.34088
1.405 10.3647 6.3528
1.41 -6.46191 -0.054554
1.415 2.19609 1.07077
1.42 -0.310847 0.37996
1.425 8.92816 4.65406
1.43 4.66952 4.66179
1.435 1.27408 2.96793
1.44 9.9193 6.44362
1.445 2.99213 4.71788
1.45 13 8.85894
1.455 17.378 13.1185
1.46 1.5835 7.35099
1.465 9.21702 8.284
1.47 14.6891 11.4866
1.475 16 13.7433
1.48 12.783 13.2631
1.485 8.31085 10.787
1.49 15.9193 13.3531
1.495 9.0807 11.2169
1.5 18.9457 15.0813
1.505 24.2432 19.6622
1.51 9.60857 14.6354
1.515 19.1478 16.8916
1.52 25.6891 21.2904
1.525 28.9179 25.1042
1.53 27.6586 26.3814
1.535 25.1715 25.7765
1.54 34.9193 30.3479
1.545 30.0807 30.2143
1.55 42 36.1071
1.555 47.3914 41.7493
1.56 33.6086 37.6789
1.565 43.217 40.448
1.57 50.6892 45.5686
1.575 53.9229 49.7457
1.58 52.7681 51.2569
1.585 50.2445 50.7507
1.59 58.9193 54.835
1.595 52.0807 53.4578
1.6 61.9683 57.7131
1.605 65.3914 61.5522
1.61 49.509 55.5306
1.615 57.217 56.3738
1.62 60.6892 58.5315
1.625 62 60.2657
1.63 56.783 58.5244
1.635 52.3108 55.4176
1.64 57.7861 56.6019
1.645 47.9346 52.2682
1.65 55 53.6341
1.655 55.3224 54.4783
1.66 34.5854 44.5319
1.665 39.1311 41.8315
1.67 39.6892 40.7603
1.675 38 39.3802
1.68 29.783 34.5816
1.685 22.3109 28.4462
1.69 26.9193 27.6828
1.695 16.0807 21.8817
1.7 21.884 21.8829
1.705 22.3914 22.1372
1.71 3.51541 12.8263
1.715 9.05807 10.9422
1.72 11.6891 11.3157
1.725 12 11.6578
1.73 5.71769 8.68776
1.735 -0.689153 3.9993
1.74 5.9193 4.9593
1.745 -3.1253 0.917
1.75 5.92944 3.42322
1.755 7.44537 5.43429
1.76 -9.38688 -1.97629
1.765 -1.78298 -1.87964
1.77 2.68915 0.404757
1.775 4 2.20238
1.78 -0.207884 0.997247
1.785 -4.68915 -1.84595
1.79 2.94583 0.54994
1.795 -4.76539 -2.10773
1.8 4 0.946136
1.805 7.43631 4.19123
1.81 -9.25607 -2.53242
1.815 -1.74395 -2.13819
1.82 2.74906 0.305437
1.825 4 2.15272
1.83 -0.217017 0.967851
1.835 -4.68915 -1.86065
1.84 2.9193 0.529324
1.845 -4.9193 -2.19499
1.85 4 0.902506
1.855 7.53716 4.21983
1.86 -9.39143 -2.5858
1.865 -1.71899 -2.1524
1.87 2.72768 0.287645
1.875 4 2.14382
1.88 -0.217017 0.963403
1.885 -4.68915 -1.86288
1.89 2.94789 0.542509
1.895 -4.9193 -2.1884
1.9 4.07695 0.944277
1.905 7.39144 4.16786
1.91 -9.39143 -2.61179
1.915 -1.77235 -2.19207
1.92 2.80026 0.304094
1.925 4.02754 2.16582
1.93 -0.217017 0.974401
1.935 -4.68915 -1.85738
1.94 3.04711 0.594867
1.945 -4.82687 -2.116
1.95 4 0.942
1.955 7.39144 4.16672
1.96 -9.39143 -2.61236
1.965 -1.74865 -2.1805
1.97 2.68915 0.254324
1.975 4 2.12716
1.98 -0.217017 0.955073
1.985 -4.68915 -1.86704
1.99 2.9193 0.526129
1.995 -4.9193 -2.19658
2 4 0.901708
2.005 7.39144 4.14657
2.01 -9.31678 -2.5851
2.015 -1.78298 -2.18404
2.02 5.68915 1.75256
2.025 9.96666 5.85961
2.03 8.75319 7.3064
2.035 6.31085 6.80862
2.04 16.9193 11.864
2.045 10.0415 10.9527
2.05 18.9183 14.9355
2.055 22.3407 18.6381
2.06 3.60857 11.1233
2.065 10.217 10.6702
2.07 12.6891 11.6797
2.075 11.9517 11.8157
2.08 5.78298 8.79934
2.085 0.310847 4.55509
2.09 5.87813 5.21661
2.095 -2.9193 1.14866
2.1 5.96457 3.55661
2.105 7.48226 5.51944
2.11 -7.39144 -0.935998
2.115 0.217017 -0.35949
2.12 4.68169 2.1611
2.125 6 4.08055
2.13 1.60362 2.84208
2.135 -1.68915 0.576465
2.14 5.9193 3.24788
2.145 -1.9193 0.664292
2.15 7.91251 4.2884
2.155 11.2514 7.76991
2.16 -5.65427 1.05782
2.165 2.21702 1.63742
2.17 6.68915 4.16329
2.175 7.95657 6.05993
2.18 3.78298 4.92145
2.185 -0.752251 2.0846
2.19 6.78917 4.43689
2.195 -0.932868 1.75201
2.2 11 6.376
2.205 19.3914 12.8837
2.21 11.6086 12.2461
2.215 32.1417 22.1939
2.22 54.5378 38.3659
2.225 76.9423 57.6541
2.23 91.6476 74.6509
2.235 99.3108 86.9809
2.24 108.91 97.9454
2.245 91.8964 94.9209
2.25 82 88.4604
2.255 61.3002 74.8803
2.26 18.6086 46.7444
2.265 4.21702 25.4807
2.27 -8.28692 8.5969
2.275 -19 -5.20155
2.28 -17.1637 -11.1826
2.285 -14.6817 -12.9321
2.29 -2.05808 -7.49512
2.295 -5.9193 -6.70721
2.3 4.06534 -1.32093
2.305 9.14851 3.91379
2.31 -6.39144 -1.23882
2.315 0.217017 -0.510903
2.32 4.67109 2.08009
2.325 6 4.04005
2.33 1.72443 2.88224
2.335 -4.67088 -0.894319
2.34 2.9193 1.01249
2.345 -4.8038 -1.89565
2.35 4.04799 1.07617
2.355 7.53003 4.3031
2.36 -9.39143 -2.54417
2.365 -1.78298 -2.16358
2.37 2.72148 0.278954
2.375 4.14584 2.2124
2.38 -0.217017 0.99769
2.385 -4.68915 -1.84573
2.39 3.04697 0.600621
2.395 -2.9193 -1.15934
2.4 5.98052 2.41059
2.405 10.3914 6.40101
2.41 -6.39144 0.00478792
2.415 2.21702 1.1109
2.42 -0.310847 0.400028
2.425 8.95328 4.67665
2.43 4.75837 4.71751
2.435 1.31085 3.01418
2.44 9.90323 6.45871
2.445 3.0807 4.7697
2.45 12.967 8.86837
2.455 17.3209 13.0946
2.46 1.60856 7.35159
2.465 9.21702 8.2843
2.47 14.6891 11.4867
2.475 15.7916 13.6392
2.48 12.769 13.2041
2.485 8.12849 10.6663
2.49 15.9193 13.2928
2.495 9.0807 11.1867
2.5 19 15.0934
2.505 24.3914 19.7424
2.51 9.60857 14.6755
2.515 19.217 16.9463
2.52 25.6845 21.3154
2.525 28.9972 25.1563
2.53 27.783 26.4696
2.535 25.3109 25.8902
2.54 34.8732 30.3817
2.545 29.902 30.1418
2.55 41.7715 35.9567
2.555 47.2302 41.5934
2.56 33.5096 37.5515
2.565 43.217 40.3843
2.57 50.6126 45.4984
2.575 53.9925 49.7454
2.58 52.783 51.2642
2.585 50.1732 50.7187
2.59 58.8353 54.777
2.595 52.0068 53.3919
2.6 61.9208 57.6563
2.605 65.3485 61.5024
2.61 49.6086 55.5555
2.615 57.1673 56.3614
2.62 60.6892 58.5253
2.625 62 60.2626
2.63 56.783 58.5228
2.635 52.3108 55.4168
2.64 57.9193 56.6681
2.645 48.0807 52.3744
2.65 54.8426 53.6085
2.655 55.3914 54.5
2.66 34.4849 44.4924
2.665 39.0169 41.7547
2.67 39.5691 40.6619
2.675 37.7828 39.2223
2.68 29.6709 34.4466
2.685 22.3109 28.3787
2.69 26.8727 27.6257
2.695 16.0807 21.8532
2.7 22 21.9266
2.705 22.3914 22.159
2.71 3.59496 12.877
2.715 9.19006 11.0335
2.72 11.6118 11.3227
2.725 12 11.6613
2.73 5.63569 8.64851
2.735 -0.77316 3.93768
2.74 5.81338 4.87553
2.745 -2.9193 0.978114
2.75 6 3.48906
2.755 7.60819 5.54862
2.76 -9.39143 -1.92141
2.765 -1.74731 -1.83436
2.77 2.68915 0.427398
2.775 4 2.2137
2.78 -0.205679 1.00401
2.785 -4.68915 -1.84257
2.79 2.92541 0.54142
2.795 -4.84145 -2.15001
2.8 4 0.924993
2.805 7.39144 4.15821
2.81 -9.39143 -2.61661
2.815 -1.78298 -2.1998
2.82 2.78904 0.294621
2.825 4 2.14731
2.83 -0.176932 0.985189
2.835 -4.68915 -1.85198
2.84 2.9422 0.545108
2.845 -4.9193 -2.1871
2.85 4 0.906452
2.855 7.39144 4.14894
2.86 -9.39143 -2.62125
2.865 -1.78298 -2.20211
2.87 2.69732 0.247603
2.875 4 2.1238
2.88 -0.217017 0.953392
2.885 -4.5553 -1.80095
2.89 2.9193 0.559173
2.895 -4.9193 -2.18006
2.9 4 0.909968
2.905 7.39144 4.1507
2.91 -9.29753 -2.57342
2.915 -1.78298 -2.1782
2.92 2.77731 0.299555
2.925 4.02365 2.1616
2.93 -0.217017 0.972293
2.935 -4.68915 -1.85843
2.94 2.93803 0.539802
2.945 -4.9193 -2.18975
2.95 4 0.905126
2.955 7.39144 4.14828
2.96 -9.33652 -2.59412
2.965 -1.72982 -2.16197
2.97 2.68915 0.263592
2.975 4.08361 2.1736
2.98 -0.217017 0.978293
2.985 -4.68915 -1.85543
2.99 3.04378 0.594175
2.995 -4.9193 -2.16256
